(9469.0, 9475.0, 9477.0)
(9454.0, 9451.0)
(9456.0, 9469.0, 9467.0)
(9460.0, 9448.0, 9444.0)
(9465.0, 9463.0)
(9459.0, 9459.0, 9446.0)
(9459.0, 9465.0)
(9447.0, 9441.0, 9441.0)
(9452.0, 9454.0)
(9441.0, 9445.0, 9455.0)
(9466.0, 9461.0)
(9452.0, 9444.0, 9456.0)
(9458.0, 9464.0)
(9462.0, 9438.0, 9452.0)
(9461.0, 9455.0, 9457.0)
(9446.0, 9447.0)
(9445.0, 9461.0, 9464.0)
(9454.0, 9458.0)
(9464.0, 9473.0, 9465.0)
(9460.0, 9457.0)
(9465.0, 9468.0, 9462.0)
(9452.0, 9460.0)
(9472.0, 9473.0, 9470.0)
(9462.0, 9444.0)
(9459.0, 9450.0, 9456.0)
(9468.0, 9449.0)
(9471.0, 9455.0, 9463.0)
(9452.0, 9440.0)
(9450.0, 9452.0, 9451.0)
(9453.0, 9463.0, 9451.0)
(9448.0, 9446.0)
(9441.0, 9444.0, 9434.0)
(9445.0, 9433.0)
(9443.0, 9437.0, 9439.0)
(9446.0, 9438.0)
(9428.0, 9408.0, 9420.0)
(9421.0, 9423.0)
(9420.0, 9402.0)
(9410.0, 9417.0, 9419.0)
(9410.0, 9409.0, 9400.0)
(9399.0, 9408.0)
(9402.0, 9404.0, 9391.0)
(9385.0, 9393.0)
(9384.0, 9381.0, 9377.0)
(9367.0, 9358.0)
(9375.0, 9384.0, 9384.0)
(9378.0, 9377.0)
(9377.0, 9383.0, 9373.0)
(9364.0, 9362.0)
(9374.0, 9369.0, 9367.0)
(9361.0, 9366.0)
(9469.0, 9475.0, 9477.0)
(9454.0, 9451.0)
(9456.0, 9469.0, 9467.0)
(9460.0, 9448.0, 9444.0)
(9465.0, 9463.0)
(9459.0, 9459.0, 9446.0)
(9459.0, 9465.0)
(9447.0, 9441.0, 9441.0)
(9452.0, 9454.0)
(9441.0, 9445.0, 9455.0)
(9466.0, 9461.0)
(9452.0, 9444.0, 9456.0)
(9458.0, 9464.0)
(9462.0, 9438.0, 9452.0)
(9461.0, 9455.0, 9457.0)
(9446.0, 9447.0)
(9445.0, 9461.0, 9464.0)
(9454.0, 9458.0)
(9464.0, 9473.0, 9465.0)
(9460.0, 9457.0)
(9465.0, 9468.0, 9462.0)
(9452.0, 9460.0)
(9472.0, 9473.0, 9470.0)
(9462.0, 9444.0)
(9459.0, 9450.0, 9456.0)
(9468.0, 9449.0)
(9471.0, 9455.0, 9463.0)
(9452.0, 9440.0)
(9450.0, 9452.0, 9451.0)
(9453.0, 9463.0, 9451.0)
(9448.0, 9446.0)
(9441.0, 9444.0, 9434.0)
(9445.0, 9433.0)
(9443.0, 9437.0, 9439.0)
(9446.0, 9438.0)
(9428.0, 9408.0, 9420.0)
(9421.0, 9423.0)
(9420.0, 9402.0)
(9410.0, 9417.0, 9419.0)
(9410.0, 9409.0, 9400.0)
(9399.0, 9408.0)
(9402.0, 9404.0, 9391.0)
(9385.0, 9393.0)
(9384.0, 9381.0, 9377.0)
(9367.0, 9358.0)
(9375.0, 9384.0, 9384.0)
(9378.0, 9377.0)
(9377.0, 9383.0, 9373.0)
(9364.0, 9362.0)
(9374.0, 9369.0, 9367.0)
(9361.0, 9366.0)
(9469.0, 9475.0, 9477.0)
(9454.0, 9451.0)
(9456.0, 9469.0, 9467.0)
(9460.0, 9448.0, 9444.0)
(9465.0, 9463.0)
(9459.0, 9459.0, 9446.0)
(9459.0, 9465.0)
(9447.0, 9441.0, 9441.0)
(9452.0, 9454.0)
(9441.0, 9445.0, 9455.0)
(9466.0, 9461.0)
(9452.0, 9444.0, 9456.0)
(9458.0, 9464.0)
(9462.0, 9438.0, 9452.0)
(9461.0, 9455.0, 9457.0)
(9446.0, 9447.0)
(9445.0, 9461.0, 9464.0)
(9454.0, 9458.0)
(9464.0, 9473.0, 9465.0)
(9460.0, 9457.0)
(9465.0, 9468.0, 9462.0)
(9452.0, 9460.0)
(9472.0, 9473.0, 9470.0)
(9462.0, 9444.0)
(9459.0, 9450.0, 9456.0)
(9468.0, 9449.0)
(9471.0, 9455.0, 9463.0)
(9452.0, 9440.0)
(9450.0, 9452.0, 9451.0)
(9453.0, 9463.0, 9451.0)
(9448.0, 9446.0)
(9441.0, 9444.0, 9434.0)
(9445.0, 9433.0)
(9443.0, 9437.0, 9439.0)
(9446.0, 9438.0)
(9428.0, 9408.0, 9420.0)
(9421.0, 9423.0)
(9420.0, 9402.0)
(9410.0, 9417.0, 9419.0)
(9410.0, 9409.0, 9400.0)
(9399.0, 9408.0)
(9402.0, 9404.0, 9391.0)
(9385.0, 9393.0)
(9384.0, 9381.0, 9377.0)
(9367.0, 9358.0)
(9375.0, 9384.0, 9384.0)
(9378.0, 9377.0)
(9377.0, 9383.0, 9373.0)
(9364.0, 9362.0)
(9374.0, 9369.0, 9367.0)
(9361.0, 9366.0)
(9469.0, 9475.0, 9477.0)
(9454.0, 9451.0)
(9456.0, 9469.0, 9467.0)
(9460.0, 9448.0, 9444.0)
(9465.0, 9463.0)
(9459.0, 9459.0, 9446.0)
(9459.0, 9465.0)
(9447.0, 9441.0, 9441.0)
(9452.0, 9454.0)
(9441.0, 9445.0, 9455.0)
(9466.0, 9461.0)
(9452.0, 9444.0, 9456.0)
(9458.0, 9464.0)
(9462.0, 9438.0, 9452.0)
(9461.0, 9455.0, 9457.0)
(9446.0, 9447.0)
(9445.0, 9461.0, 9464.0)
(9454.0, 9458.0)
(9464.0, 9473.0, 9465.0)
(9460.0, 9457.0)
(9465.0, 9468.0, 9462.0)
(9452.0, 9460.0)
(9472.0, 9473.0, 9470.0)
(9462.0, 9444.0)
(9459.0, 9450.0, 9456.0)
(9468.0, 9449.0)
(9471.0, 9455.0, 9463.0)
(9452.0, 9440.0)
(9450.0, 9452.0, 9451.0)
(9453.0, 9463.0, 9451.0)
(9448.0, 9446.0)
(9441.0, 9444.0, 9434.0)
(9445.0, 9433.0)
(9443.0, 9437.0, 9439.0)
(9446.0, 9438.0)
(9428.0, 9408.0, 9420.0)
(9421.0, 9423.0)
(9420.0, 9402.0)
(9410.0, 9417.0, 9419.0)
(9410.0, 9409.0, 9400.0)
(9399.0, 9408.0)
(9402.0, 9404.0, 9391.0)
(9385.0, 9393.0)
(9384.0, 9381.0, 9377.0)
(9367.0, 9358.0)
(9375.0, 9384.0, 9384.0)
(9378.0, 9377.0)
(9377.0, 9383.0, 9373.0)
(9364.0, 9362.0)
(9374.0, 9369.0, 9367.0)
(9361.0, 9366.0)
(9469.0, 9475.0, 9477.0)
(9454.0, 9451.0)
(9456.0, 9469.0, 9467.0)
(9460.0, 9448.0, 9444.0)
(9465.0, 9463.0)
(9459.0, 9459.0, 9446.0)
(9459.0, 9465.0)
(9447.0, 9441.0, 9441.0)
(9452.0, 9454.0)
(9441.0, 9445.0, 9455.0)
(9466.0, 9461.0)
(9452.0, 9444.0, 9456.0)
(9458.0, 9464.0)
(9462.0, 9438.0, 9452.0)
(9461.0, 9455.0, 9457.0)
(9446.0, 9447.0)
(9445.0, 9461.0, 9464.0)
(9454.0, 9458.0)
(9464.0, 9473.0, 9465.0)
(9460.0, 9457.0)
(9465.0, 9468.0, 9462.0)
(9452.0, 9460.0)
(9472.0, 9473.0, 9470.0)
(9462.0, 9444.0)
(9459.0, 9450.0, 9456.0)
(9468.0, 9449.0)
(9471.0, 9455.0, 9463.0)
(9452.0, 9440.0)
(9450.0, 9452.0, 9451.0)
(9453.0, 9463.0, 9451.0)
(9448.0, 9446.0)
(9441.0, 9444.0, 9434.0)
(9445.0, 9433.0)
(9443.0, 9437.0, 9439.0)
(9446.0, 9438.0)
(9428.0, 9408.0, 9420.0)
(9421.0, 9423.0)
(9420.0, 9402.0)
(9410.0, 9417.0, 9419.0)
(9410.0, 9409.0, 9400.0)
(9399.0, 9408.0)
(9402.0, 9404.0, 9391.0)
(9385.0, 9393.0)
(9384.0, 9381.0, 9377.0)
(9367.0, 9358.0)
(9375.0, 9384.0, 9384.0)
(9378.0, 9377.0)
(9377.0, 9383.0, 9373.0)
(9364.0, 9362.0)
(9374.0, 9369.0, 9367.0)
(9361.0, 9366.0)
(9469.0, 9475.0, 9477.0)
(9454.0, 9451.0)
(9456.0, 9469.0, 9467.0)
(9460.0, 9448.0, 9444.0)
(9465.0, 9463.0)
(9459.0, 9459.0, 9446.0)
(9459.0, 9465.0)
(9447.0, 9441.0, 9441.0)
(9452.0, 9454.0)
(9441.0, 9445.0, 9455.0)
(9466.0, 9461.0)
(9452.0, 9444.0, 9456.0)
(9458.0, 9464.0)
(9462.0, 9438.0, 9452.0)
(9461.0, 9455.0, 9457.0)
(9446.0, 9447.0)
(9445.0, 9461.0, 9464.0)
(9454.0, 9458.0)
(9464.0, 9473.0, 9465.0)
(9460.0, 9457.0)
(9465.0, 9468.0, 9462.0)
(9452.0, 9460.0)
(9472.0, 9473.0, 9470.0)
(9462.0, 9444.0)
(9459.0, 9450.0, 9456.0)
(9468.0, 9449.0)
(9471.0, 9455.0, 9463.0)
(9452.0, 9440.0)
(9450.0, 9452.0, 9451.0)
(9453.0, 9463.0, 9451.0)
(9448.0, 9446.0)
(9441.0, 9444.0, 9434.0)
(9445.0, 9433.0)
(9443.0, 9437.0, 9439.0)
(9446.0, 9438.0)
(9428.0, 9408.0, 9420.0)
(9421.0, 9423.0)
(9420.0, 9402.0)
(9410.0, 9417.0, 9419.0)
(9410.0, 9409.0, 9400.0)
(9399.0, 9408.0)
(9402.0, 9404.0, 9391.0)
(9385.0, 9393.0)
(9384.0, 9381.0, 9377.0)
(9367.0, 9358.0)
(9375.0, 9384.0, 9384.0)
(9378.0, 9377.0)
(9377.0, 9383.0, 9373.0)
(9364.0, 9362.0)
(9374.0, 9369.0, 9367.0)
(9361.0, 9366.0)
(9469.0, 9475.0, 9477.0)
(9454.0, 9451.0)
(9456.0, 9469.0, 9467.0)
(9460.0, 9448.0, 9444.0)
(9465.0, 9463.0)
(9459.0, 9459.0, 9446.0)
(9459.0, 9465.0)
(9447.0, 9441.0, 9441.0)
(9452.0, 9454.0)
(9441.0, 9445.0, 9455.0)
(9466.0, 9461.0)
(9452.0, 9444.0, 9456.0)
(9458.0, 9464.0)
(9462.0, 9438.0, 9452.0)
(9461.0, 9455.0, 9457.0)
(9446.0, 9447.0)
(9445.0, 9461.0, 9464.0)
(9454.0, 9458.0)
(9464.0, 9473.0, 9465.0)
(9460.0, 9457.0)
(9465.0, 9468.0, 9462.0)
(9452.0, 9460.0)
(9472.0, 9473.0, 9470.0)
(9462.0, 9444.0)
(9459.0, 9450.0, 9456.0)
(9468.0, 9449.0)
(9471.0, 9455.0, 9463.0)
(9452.0, 9440.0)
(9450.0, 9452.0, 9451.0)
(9453.0, 9463.0, 9451.0)
(9448.0, 9446.0)
(9441.0, 9444.0, 9434.0)
(9445.0, 9433.0)
(9443.0, 9437.0, 9439.0)
(9446.0, 9438.0)
(9428.0, 9408.0, 9420.0)
(9421.0, 9423.0)
(9420.0, 9402.0)
(9410.0, 9417.0, 9419.0)
(9410.0, 9409.0, 9400.0)
(9399.0, 9408.0)
(9402.0, 9404.0, 9391.0)
(9385.0, 9393.0)
(9384.0, 9381.0, 9377.0)
(9367.0, 9358.0)
(9375.0, 9384.0, 9384.0)
(9378.0, 9377.0)
(9377.0, 9383.0, 9373.0)
(9364.0, 9362.0)
(9374.0, 9369.0, 9367.0)
(9361.0, 9366.0)
(9469.0, 9475.0, 9477.0)
(9454.0, 9451.0)
(9456.0, 9469.0, 9467.0)
(9460.0, 9448.0, 9444.0)
(9465.0, 9463.0)
(9459.0, 9459.0, 9446.0)
(9459.0, 9465.0)
(9447.0, 9441.0, 9441.0)
(9452.0, 9454.0)
(9441.0, 9445.0, 9455.0)
(9466.0, 9461.0)
(9452.0, 9444.0, 9456.0)
(9458.0, 9464.0)
(9462.0, 9438.0, 9452.0)
(9461.0, 9455.0, 9457.0)
(9446.0, 9447.0)
(9445.0, 9461.0, 9464.0)
(9454.0, 9458.0)
(9464.0, 9473.0, 9465.0)
(9460.0, 9457.0)
(9465.0, 9468.0, 9462.0)
(9452.0, 9460.0)
(9472.0, 9473.0, 9470.0)
(9462.0, 9444.0)
(9459.0, 9450.0, 9456.0)
(9468.0, 9449.0)
(9471.0, 9455.0, 9463.0)
(9452.0, 9440.0)
(9450.0, 9452.0, 9451.0)
(9453.0, 9463.0, 9451.0)
(9448.0, 9446.0)
(9441.0, 9444.0, 9434.0)
(9445.0, 9433.0)
(9443.0, 9437.0, 9439.0)
(9446.0, 9438.0)
(9428.0, 9408.0, 9420.0)
(9421.0, 9423.0)
(9420.0, 9402.0)
(9410.0, 9417.0, 9419.0)
(9410.0, 9409.0, 9400.0)
(9399.0, 9408.0)
(9402.0, 9404.0, 9391.0)
(9385.0, 9393.0)
(9384.0, 9381.0, 9377.0)
(9367.0, 9358.0)
(9375.0, 9384.0, 9384.0)
(9378.0, 9377.0)
(9377.0, 9383.0, 9373.0)
(9364.0, 9362.0)
(9374.0, 9369.0, 9367.0)
(9361.0, 9366.0)
(9469.0, 9475.0, 9477.0)
(9454.0, 9451.0)
(9456.0, 9469.0, 9467.0)
(9460.0, 9448.0, 9444.0)
(9465.0, 9463.0)
(9459.0, 9459.0, 9446.0)
(9459.0, 9465.0)
(9447.0, 9441.0, 9441.0)
(9452.0, 9454.0)
(9441.0, 9445.0, 9455.0)
(9466.0, 9461.0)
(9452.0, 9444.0, 9456.0)
(9458.0, 9464.0)
(9462.0, 9438.0, 9452.0)
(9461.0, 9455.0, 9457.0)
(9446.0, 9447.0)
(9445.0, 9461.0, 9464.0)
(9454.0, 9458.0)
(9464.0, 9473.0, 9465.0)
(9460.0, 9457.0)
(9465.0, 9468.0, 9462.0)
(9452.0, 9460.0)
(9472.0, 9473.0, 9470.0)
(9462.0, 9444.0)
(9459.0, 9450.0, 9456.0)
(9468.0, 9449.0)
(9471.0, 9455.0, 9463.0)
(9452.0, 9440.0)
(9450.0, 9452.0, 9451.0)
(9453.0, 9463.0, 9451.0)
(9448.0, 9446.0)
(9441.0, 9444.0, 9434.0)
(9445.0, 9433.0)
(9443.0, 9437.0, 9439.0)
(9446.0, 9438.0)
(9428.0, 9408.0, 9420.0)
(9421.0, 9423.0)
(9420.0, 9402.0)
(9410.0, 9417.0, 9419.0)
(9410.0, 9409.0, 9400.0)
(9399.0, 9408.0)
(9402.0, 9404.0, 9391.0)
(9385.0, 9393.0)
(9384.0, 9381.0, 9377.0)
(9367.0, 9358.0)
(9375.0, 9384.0, 9384.0)
(9378.0, 9377.0)
(9377.0, 9383.0, 9373.0)
(9364.0, 9362.0)
(9374.0, 9369.0, 9367.0)
(9361.0, 9366.0)
(9469.0, 9475.0, 9477.0)
(9454.0, 9451.0)
(9456.0, 9469.0, 9467.0)
(9460.0, 9448.0, 9444.0)
(9465.0, 9463.0)
(9459.0, 9459.0, 9446.0)
(9459.0, 9465.0)
(9447.0, 9441.0, 9441.0)
(9452.0, 9454.0)
(9441.0, 9445.0, 9455.0)
(9466.0, 9461.0)
(9452.0, 9444.0, 9456.0)
(9458.0, 9464.0)
(9462.0, 9438.0, 9452.0)
(9461.0, 9455.0, 9457.0)
(9446.0, 9447.0)
(9445.0, 9461.0, 9464.0)
(9454.0, 9458.0)
(9464.0, 9473.0, 9465.0)
(9460.0, 9457.0)
(9465.0, 9468.0, 9462.0)
(9452.0, 9460.0)
(9472.0, 9473.0, 9470.0)
(9462.0, 9444.0)
(9459.0, 9450.0, 9456.0)
(9468.0, 9449.0)
(9471.0, 9455.0, 9463.0)
(9452.0, 9440.0)
(9450.0, 9452.0, 9451.0)
(9453.0, 9463.0, 9451.0)
(9448.0, 9446.0)
(9441.0, 9444.0, 9434.0)
(9445.0, 9433.0)
(9443.0, 9437.0, 9439.0)
(9446.0, 9438.0)
(9428.0, 9408.0, 9420.0)
(9421.0, 9423.0)
(9420.0, 9402.0)
(9410.0, 9417.0, 9419.0)
(9410.0, 9409.0, 9400.0)
(9399.0, 9408.0)
(9402.0, 9404.0, 9391.0)
(9385.0, 9393.0)
(9384.0, 9381.0, 9377.0)
(9367.0, 9358.0)
(9375.0, 9384.0, 9384.0)
(9378.0, 9377.0)
(9377.0, 9383.0, 9373.0)
(9364.0, 9362.0)
(9374.0, 9369.0, 9367.0)
(9361.0, 9366.0)
(9469.0, 9475.0, 9477.0)
(9454.0, 9451.0)
(9456.0, 9469.0, 9467.0)
(9460.0, 9448.0, 9444.0)
(9465.0, 9463.0)
(9459.0, 9459.0, 9446.0)
(9459.0, 9465.0)
(9447.0, 9441.0, 9441.0)
(9452.0, 9454.0)
(9441.0, 9445.0, 9455.0)
(9466.0, 9461.0)
(9452.0, 9444.0, 9456.0)
(9458.0, 9464.0)
(9462.0, 9438.0, 9452.0)
(9461.0, 9455.0, 9457.0)
(9446.0, 9447.0)
(9445.0, 9461.0, 9464.0)
(9454.0, 9458.0)
(9464.0, 9473.0, 9465.0)
(9460.0, 9457.0)
(9465.0, 9468.0, 9462.0)
(9452.0, 9460.0)
(9472.0, 9473.0, 9470.0)
(9462.0, 9444.0)
(9459.0, 9450.0, 9456.0)
(9468.0, 9449.0)
(9471.0, 9455.0, 9463.0)
(9452.0, 9440.0)
(9450.0, 9452.0, 9451.0)
(9453.0, 9463.0, 9451.0)
(9448.0, 9446.0)
(9441.0, 9444.0, 9434.0)
(9445.0, 9433.0)
(9443.0, 9437.0, 9439.0)
(9446.0, 9438.0)
(9428.0, 9408.0, 9420.0)
(9421.0, 9423.0)
(9420.0, 9402.0)
(9410.0, 9417.0, 9419.0)
(9410.0, 9409.0, 9400.0)
(9399.0, 9408.0)
(9402.0, 9404.0, 9391.0)
(9385.0, 9393.0)
(9384.0, 9381.0, 9377.0)
(9367.0, 9358.0)
(9375.0, 9384.0, 9384.0)
(9378.0, 9377.0)
(9377.0, 9383.0, 9373.0)
(9364.0, 9362.0)
(9374.0, 9369.0, 9367.0)
(9361.0, 9366.0)
(9469.0, 9475.0, 9477.0)
(9454.0, 9451.0)
(9456.0, 9469.0, 9467.0)
(9460.0, 9448.0, 9444.0)
(9465.0, 9463.0)
(9459.0, 9459.0, 9446.0)
(9459.0, 9465.0)
(9447.0, 9441.0, 9441.0)
(9452.0, 9454.0)
(9441.0, 9445.0, 9455.0)
(9466.0, 9461.0)
(9452.0, 9444.0, 9456.0)
(9458.0, 9464.0)
(9462.0, 9438.0, 9452.0)
(9461.0, 9455.0, 9457.0)
(9446.0, 9447.0)
(9445.0, 9461.0, 9464.0)
(9454.0, 9458.0)
(9464.0, 9473.0, 9465.0)
(9460.0, 9457.0)
(9465.0, 9468.0, 9462.0)
(9452.0, 9460.0)
(9472.0, 9473.0, 9470.0)
(9462.0, 9444.0)
(9459.0, 9450.0, 9456.0)
(9468.0, 9449.0)
(9471.0, 9455.0, 9463.0)
(9452.0, 9440.0)
(9450.0, 9452.0, 9451.0)
(9453.0, 9463.0, 9451.0)
(9448.0, 9446.0)
(9441.0, 9444.0, 9434.0)
(9445.0, 9433.0)
(9443.0, 9437.0, 9439.0)
(9446.0, 9438.0)
(9428.0, 9408.0, 9420.0)
(9421.0, 9423.0)
(9420.0, 9402.0)
(9410.0, 9417.0, 9419.0)
(9410.0, 9409.0, 9400.0)
(9399.0, 9408.0)
(9402.0, 9404.0, 9391.0)
(9385.0, 9393.0)
(9384.0, 9381.0, 9377.0)
(9367.0, 9358.0)
(9375.0, 9384.0, 9384.0)
(9378.0, 9377.0)
(9377.0, 9383.0, 9373.0)
(9364.0, 9362.0)
(9374.0, 9369.0, 9367.0)
(9361.0, 9366.0)
(9469.0, 9475.0, 9477.0)
(9454.0, 9451.0)
(9456.0, 9469.0, 9467.0)
(9460.0, 9448.0, 9444.0)
(9465.0, 9463.0)
(9459.0, 9459.0, 9446.0)
(9459.0, 9465.0)
(9447.0, 9441.0, 9441.0)
(9452.0, 9454.0)
(9441.0, 9445.0, 9455.0)
(9466.0, 9461.0)
(9452.0, 9444.0, 9456.0)
(9458.0, 9464.0)
(9462.0, 9438.0, 9452.0)
(9461.0, 9455.0, 9457.0)
(9446.0, 9447.0)
(9445.0, 9461.0, 9464.0)
(9454.0, 9458.0)
(9464.0, 9473.0, 9465.0)
(9460.0, 9457.0)
(9465.0, 9468.0, 9462.0)
(9452.0, 9460.0)
(9472.0, 9473.0, 9470.0)
(9462.0, 9444.0)
(9459.0, 9450.0, 9456.0)
(9468.0, 9449.0)
(9471.0, 9455.0, 9463.0)
(9452.0, 9440.0)
(9450.0, 9452.0, 9451.0)
(9453.0, 9463.0, 9451.0)
(9448.0, 9446.0)
(9441.0, 9444.0, 9434.0)
(9445.0, 9433.0)
(9443.0, 9437.0, 9439.0)
(9446.0, 9438.0)
(9428.0, 9408.0, 9420.0)
(9421.0, 9423.0)
(9420.0, 9402.0)
(9410.0, 9417.0, 9419.0)
(9410.0, 9409.0, 9400.0)
(9399.0, 9408.0)
(9402.0, 9404.0, 9391.0)
(9385.0, 9393.0)
(9384.0, 9381.0, 9377.0)
(9367.0, 9358.0)
(9375.0, 9384.0, 9384.0)
(9378.0, 9377.0)
(9377.0, 9383.0, 9373.0)
(9364.0, 9362.0)
(9374.0, 9369.0, 9367.0)
(9361.0, 9366.0)
